wavelength,n,k
1099,5.516416437,0
1098,5.520566244,0
1097,5.524714229,0
1096,5.528860381,0
1095,5.533004689,0
1094,5.537147143,0
1093,5.54128773,0
1092,5.54542644,0
1091,5.549563263,0
1090,5.553474917,0
1089,5.558118158,0
1088,5.562397355,0
1087,5.566133833,0
1086,5.569868832,0
1085,5.57367926,0
1084,5.576910978,0
1083,5.580390733,0
1082,5.584369746,0
1081,5.588304282,0
1080,5.592339067,0
1079,5.595783273,0
1078,5.59951566,0
1077,5.60292701,0
1076,5.60700974,0
1075,5.610271982,0
1074,5.613745428,0
1073,5.616940028,0
1072,5.619782242,0
1071,5.622096294,0
1070,5.624815465,0
1069,5.626903457,0
1068,5.62930422,0
1067,5.631647861,0
1066,5.634836518,0
1065,5.637827458,0
1064,5.640986585,0
1063,5.643649505,0
1062,5.646778743,0
1061,5.649171237,0
1060,5.651295768,0
1059,5.653455658,0
1058,5.65562155,0
1057,5.657484515,0
1056,5.659117735,0
1055,5.660437521,0
1054,5.661679183,0
1053,5.662145513,0
1052,5.663063598,0
1051,5.663309108,0
1050,5.663868926,0
1049,5.664016259,0
1048,5.664232356,0
1047,5.663269826,0
1046,5.66246952,0
1045,5.660589642,0
1044,5.65829369,0
1043,5.656376443,0
1042,5.653744706,0
1041,5.6501012,0
1040,5.646622227,0
1039,5.643175432,0
1038,5.63835951,0
1037,5.632495984,0
1036,5.626129466,0
1035,5.619437188,0
1034,5.61269242,0
1033,5.605183405,0
1032,5.59616023,0
1031,5.586939314,0
1030,5.577199645,0
1029,5.566460153,0
1028,5.555853338,0
1027,5.545316218,0
1026,5.533295909,0
1025,5.520588396,0
1024,5.50843521,0
1023,5.495595244,0
1022,5.480471455,0
1021,5.464732473,0
1020,5.449043406,0
1019,5.433255245,0
1018,5.415661053,0
1017,5.396735612,0
1016,5.376286659,0
1015,5.35550043,0
1014,5.333357095,0
1013,5.311323205,0
1012,5.288527058,0
1011,5.263460764,0
1010,5.237283684,0
1009,5.210674478,0
1008,5.182877601,0
1007,5.153289283,0
1006,5.121756517,0
1005,5.08989937,0
1004,5.058156352,0
1003,5.025984699,0
1002,4.993142802,0
1001,4.960700941,0
1000,4.927679424,0
999,4.894815907,0
998,4.862178088,0
997,4.829154747,0
996,4.79453592,0
995,4.758924982,0
994,4.722991345,0
993,4.685531658,0
992,4.646081562,0
991,4.605253919,0
990,4.563198158,0
989,4.520322316,0
988,4.476213725,0
987,4.431170554,0
986,4.384986375,0
985,4.337903917,0
984,4.289609266,0
983,4.240593558,0
982,4.19050034,0
981,4.139421982,0
980,4.087286337,0
979,4.034473246,0
978,3.981125055,0
977,3.927288674,0
976,3.873009229,0
975,3.81875706,0
974,3.764343012,0
973,3.709684229,0
972,3.654785081,0
971,3.600701692,0
970,3.546532706,0
969,3.492269175,0
968,3.438737727,0
967,3.385883406,0
966,3.333259443,0
965,3.281526212,0
964,3.230393811,0
963,3.180063933,0
962,3.130901355,0
961,3.082693434,0
960,3.035477443,0
959,2.989760474,0
958,2.945184193,0
957,2.901807552,0
956,2.859833401,0
955,2.819336422,0
954,2.779452628,0
953,2.74057877,0
952,2.703455591,0
951,2.667704131,0
950,2.633236297,0
949,2.600159815,0
948,2.567986788,0
947,2.536940505,0
946,2.507106836,0
945,2.478225066,0
944,2.450622091,0
943,2.424750537,0
942,2.400379061,0
941,2.37717418,0
940,2.355134791,0
939,2.334271867,0
938,2.314543934,0
937,2.295844924,0
936,2.278117861,0
935,2.261302957,0
934,2.245220648,0
933,2.229332929,0
932,2.213796039,0
931,2.199206935,0
930,2.185192795,0
929,2.171535108,0
928,2.158740879,0
927,2.146623275,0
926,2.135385359,0
925,2.124908668,0
924,2.115211881,0
923,2.106242669,0
922,2.097462865,0
921,2.089376701,0
920,2.08180497,0
919,2.074357468,0
918,2.067182426,0
917,2.060135025,0
916,2.05341995,0
915,2.047576339,0
914,2.042559682,0
913,2.037924215,0
912,2.033567307,0
911,2.029528541,0
910,2.025396023,0
909,2.021215713,0
908,2.017048184,0
907,2.013075208,0
906,2.009273734,0
905,2.006477546,0
904,2.004019938,0
903,2.001167376,0
902,1.998155998,0
901,1.994530206,0
900,1.991019308,0
899,1.989545963,0
898,1.989067385,0
897,1.988179188,0
896,1.987790469,0.00481
895,1.986797768,0.01036
894,1.984051596,0.01611
893,1.982043118,0.02213
892,1.98072431,0.02839
891,1.980028321,0.03485
890,1.98000115,0.04153
889,1.980563376,0.04849
888,1.980973025,0.05571
887,1.980233147,0.06311
886,1.978391781,0.07072
885,1.976519011,0.07856
884,1.975772814,0.08667
883,1.975486455,0.09497
882,1.975095585,0.1034
881,1.974681719,0.11206
880,1.974094358,0.12096
879,1.972787929,0.13008
878,1.972098121,0.13935
877,1.972482742,0.14876
876,1.973387845,0.15831
875,1.975195915,0.16806
874,1.975885684,0.17809
873,1.976723848,0.18821
872,1.977739662,0.19841
871,1.978722018,0.20874
870,1.978826523,0.21921
869,1.97772294,0.22978
868,1.97687643,0.24046
867,1.97563277,0.24925
866,1.975152021,0.25956
865,1.974901193,0.2712
864,1.974535402,0.28389
863,1.975329689,0.29774
862,1.976619339,0.31262
861,1.977689498,0.32833
859,1.979449371,0.34485
858,1.981618845,0.36164
857,1.983157087,0.37923
856,1.98603704,0.39681
855,1.98898379,0.41417
854,1.991410107,0.43096
853,1.99223977,0.4465
852,1.992172895,0.4601
851,1.99316974,0.47119
850,1.99372772,0.47923
849,1.994363022,0.49158
848,1.994964885,0.50385
847,1.995196853,0.51612
846,1.9953306,0.52858
845,1.995213571,0.54099
844,1.994939808,0.55335
843,1.995065196,0.5657
842,1.995265816,0.57804
841,1.995242829,0.59035
840,1.994797701,0.60273
839,1.993763247,0.61505
838,1.992858357,0.62727
837,1.991527138,0.63938
836,1.990191729,0.65139
835,1.988885566,0.66331
834,1.987222019,0.67518
833,1.985880296,0.68685
832,1.984220882,0.69844
831,1.982555169,0.70994
830,1.980753571,0.72128
829,1.97896865,0.73234
828,1.977179503,0.74326
827,1.97553662,0.75393
826,1.973559248,0.76432
825,1.971387401,0.77444
824,1.968981328,0.78438
823,1.966635757,0.79392
822,1.96450749,0.80318
821,1.961835498,0.81212
820,1.9592825,0.82068
819,1.956593392,0.82884
818,1.953680288,0.83661
817,1.95094887,0.84392
816,1.947895061,0.8508
815,1.944861823,0.85723
814,1.941499733,0.86324
813,1.938315036,0.8688
812,1.9352136,0.87402
811,1.931906575,0.87885
810,1.928797894,0.88315
809,1.925734773,0.88685
808,1.92252035,0.89011
807,1.919690749,0.89296
806,1.916623933,0.89548
805,1.913430804,0.89757
804,1.910281025,0.89927
803,1.907101226,0.90048
802,1.90396265,0.90128
801,1.900760434,0.90173
800,1.897521775,0.90184
799,1.894030481,0.9016
798,1.890628446,0.90102
797,1.887166637,0.90011
796,1.883783584,0.89896
795,1.880386881,0.89757
794,1.87719925,0.89578
793,1.873787789,0.8937
792,1.870358333,0.89149
791,1.867264258,0.88906
790,1.863998701,0.88644
789,1.86119511,0.88367
788,1.858430644,0.8808
787,1.855701106,0.87777
786,1.853366822,0.87466
785,1.850814791,0.87144
784,1.848580317,0.86819
783,1.846256643,0.86497
782,1.84410526,0.86171
781,1.841873092,0.85846
780,1.839980087,0.8553
779,1.838130935,0.85218
778,1.836507266,0.84914
777,1.835202156,0.84622
776,1.834082698,0.84337
775,1.833146865,0.84056
774,1.832379939,0.83785
773,1.832115827,0.83529
772,1.83182001,0.8328
771,1.831631948,0.83044
770,1.831982711,0.82818
769,1.832198231,0.82602
768,1.832648267,0.82416
767,1.833058134,0.82251
766,1.833510228,0.82081
765,1.834061574,0.81907
764,1.834792412,0.81726
763,1.835738589,0.81546
762,1.836887351,0.81369
761,1.838221714,0.81191
760,1.839363754,0.81021
759,1.840573153,0.80862
758,1.841714833,0.80712
757,1.842974489,0.80573
756,1.844261361,0.80453
755,1.845604964,0.80353
754,1.846857659,0.80272
753,1.848072203,0.80215
752,1.849389859,0.80181
751,1.850534462,0.80145
750,1.851834856,0.80104
749,1.853099223,0.80051
748,1.854376037,0.79992
747,1.85575798,0.79931
746,1.857190244,0.79858
745,1.858533827,0.79782
744,1.859894046,0.79703
743,1.861096169,0.79612
742,1.862165521,0.79512
741,1.863287362,0.79403
740,1.864278591,0.79285
739,1.865252879,0.79155
738,1.866123969,0.79017
737,1.867257947,0.78863
736,1.868433857,0.78694
735,1.86923945,0.7851
734,1.870110171,0.78312
733,1.870753697,0.78094
732,1.871378254,0.77863
731,1.872036415,0.77615
730,1.872549454,0.77348
729,1.872787042,0.77071
728,1.873110824,0.76776
727,1.873115029,0.76463
726,1.873173897,0.76133
725,1.873146566,0.75786
724,1.872980471,0.75417
723,1.872911089,0.75034
722,1.872782837,0.74634
721,1.872780734,0.74216
720,1.872574685,0.73785
719,1.87216678,0.73339
718,1.871798809,0.72878
717,1.871357226,0.72406
716,1.87094927,0.71919
715,1.870282623,0.71421
714,1.869521286,0.70912
713,1.868633684,0.70393
712,1.867712341,0.69863
711,1.8666226,0.69324
710,1.865562188,0.68776
709,1.864284904,0.68221
708,1.862921148,0.67654
707,1.861605601,0.67084
706,1.86032565,0.66507
705,1.858912857,0.65927
704,1.857447184,0.65344
703,1.855932814,0.64758
702,1.854458202,0.64171
701,1.852871651,0.63586
700,1.851310087,0.62995
699,1.849674444,0.62407
698,1.848105938,0.61821
697,1.846416919,0.61239
696,1.844748629,0.60658
695,1.843117955,0.60084
694,1.84146161,0.59515
693,1.839880886,0.58953
692,1.838392715,0.58398
691,1.836929581,0.57855
690,1.835552743,0.57321
689,1.834082698,0.56798
688,1.832652493,0.56284
687,1.831226224,0.55782
686,1.82989689,0.55291
685,1.828512335,0.54817
684,1.827157102,0.54352
683,1.825791023,0.53905
682,1.824378128,0.53475
681,1.822958584,0.53064
680,1.82165301,0.52673
679,1.820296374,0.52305
678,1.81901355,0.51962
677,1.817728351,0.51645
676,1.816409003,0.51356
675,1.815068193,0.51096
674,1.81371438,0.50866
673,1.812235226,0.5067
672,1.810728153,0.50507
671,1.80920586,0.50385
670,1.807640758,0.50302
669,1.806013713,0.50261
668,1.804350137,0.50265
667,1.8027158,0.50319
666,1.801059761,0.50423
665,1.79937987,0.5058
664,1.797633606,0.50792
663,1.79586766,0.5106
662,1.794133033,0.51389
661,1.792319156,0.51779
660,1.790485513,0.52232
659,1.788570355,0.52749
658,1.786511837,0.53333
657,1.784539824,0.53985
656,1.782520165,0.54703
655,1.78044853,0.55488
654,1.778324841,0.5634
653,1.776189559,0.57257
652,1.774006369,0.58237
651,1.771828581,0.59278
650,1.769587821,0.60373
649,1.767341699,0.61518
648,1.765070945,0.62708
647,1.762796905,0.63935
646,1.760463895,0.65192
645,1.75810608,0.66471
644,1.755716972,0.67763
643,1.753294356,0.69058
642,1.750885363,0.70344
641,1.748590907,0.71612
640,1.746112565,0.7285
639,1.743486525,0.74051
638,1.740708169,0.75203
637,1.737867563,0.76295
636,1.734895596,0.7732
635,1.73185877,0.78269
634,1.728672724,0.79135
633,1.725388866,0.79919
632,1.721898778,0.80615
631,1.718271051,0.81222
630,1.714583189,0.81732
629,1.71079805,0.8215
628,1.706932598,0.8248
627,1.703012555,0.82722
626,1.699026746,0.82872
625,1.695014064,0.82939
624,1.690943745,0.82924
623,1.68674332,0.82836
622,1.68258943,0.82671
621,1.678409821,0.82436
620,1.674177913,0.82135
619,1.669992295,0.81774
618,1.665822226,0.81355
617,1.661678685,0.80888
616,1.657521909,0.80379
615,1.653471207,0.79834
614,1.649511459,0.79255
613,1.645618574,0.78651
612,1.64183946,0.78028
611,1.638161199,0.77389
610,1.634637705,0.76741
609,1.631437124,0.76091
608,1.628408686,0.75441
607,1.625557515,0.74796
606,1.62295152,0.74162
605,1.620499518,0.73542
604,1.618348062,0.7294
603,1.616446317,0.72359
602,1.614806199,0.71801
601,1.613417054,0.71274
600,1.612198252,0.70775
599,1.611213223,0.70309
598,1.610502897,0.69878
597,1.609957019,0.69476
596,1.609614079,0.69107
595,1.6094471,0.68771
594,1.609496744,0.68467
593,1.609742688,0.68192
592,1.610112677,0.67946
591,1.610606643,0.67723
590,1.61116813,0.67521
589,1.611731718,0.67339
588,1.6123943,0.67169
587,1.612986838,0.67008
586,1.613597222,0.66855
585,1.614133131,0.66703
584,1.614630637,0.66546
583,1.615173031,0.66385
582,1.615672539,0.66214
581,1.616045968,0.66027
580,1.616390093,0.65827
579,1.616677945,0.65609
578,1.616844342,0.65371
577,1.617008477,0.65114
576,1.617084919,0.64835
575,1.61704445,0.64533
574,1.616914044,0.64207
573,1.616554263,0.63858
572,1.616048217,0.63484
571,1.61540255,0.63092
570,1.614680156,0.62678
569,1.613777375,0.62245
568,1.612860684,0.61793
567,1.611891749,0.61325
566,1.610802842,0.60844
565,1.609711101,0.60353
564,1.608566851,0.5985
563,1.607376779,0.59338
562,1.606118196,0.58819
561,1.604815851,0.58295
560,1.603370064,0.57768
559,1.601909631,0.57237
558,1.600305302,0.56703
557,1.598608899,0.56171
556,1.596829255,0.55642
555,1.595066146,0.55116
554,1.593208121,0.54593
553,1.591277661,0.54076
552,1.58943185,0.53566
551,1.587568228,0.53068
550,1.585718712,0.52581
549,1.583963367,0.52103
548,1.58216512,0.51635
547,1.580404025,0.51179
546,1.578625135,0.50735
545,1.576816907,0.50303
544,1.575098742,0.49883
543,1.573411087,0.49473
542,1.571742508,0.49073
541,1.570081524,0.48685
540,1.568368163,0.48305
539,1.566722348,0.47934
538,1.564996319,0.47573
537,1.563310154,0.47217
536,1.561603736,0.46868
535,1.559865393,0.46525
534,1.558083406,0.46186
533,1.556334311,0.45851
532,1.554522812,0.4552
531,1.552641693,0.4519
530,1.55077232,0.44862
529,1.548863348,0.44535
528,1.546952022,0.44209
527,1.545035977,0.43883
526,1.543162054,0.43555
525,1.541194279,0.43227
524,1.539268566,0.42899
523,1.537387414,0.4257
522,1.535419041,0.42239
521,1.533504634,0.41908
520,1.531512097,0.41577
519,1.529583031,0.41244
518,1.527585018,0.40912
517,1.525660087,0.4058
516,1.52367549,0.40248
515,1.521683292,0.39918
514,1.519735853,0.39589
513,1.517699735,0.39262
512,1.515667713,0.38937
511,1.513733116,0.38614
510,1.511711814,0.38294
509,1.509742611,0.37978
508,1.507823319,0.37665
507,1.505901175,0.37355
506,1.503968913,0.37048
505,1.502156861,0.36744
504,1.500264823,0.36443
503,1.49840867,0.36146
502,1.496607947,0.35851
501,1.494928455,0.35558
500,1.493241789,0.35266
499,1.491696457,0.34977
498,1.490205221,0.34691
497,1.488675506,0.34405
496,1.487190264,0.34121
495,1.485776575,0.33837
494,1.484363631,0.33556
493,1.483159933,0.33274
492,1.481893601,0.32993
491,1.480763528,0.32712
490,1.479679087,0.32431
489,1.478534513,0.32149
488,1.477406042,0.31866
487,1.47636034,0.31583
486,1.475501349,0.31298
485,1.474693594,0.31012
484,1.473885256,0.30726
483,1.473301503,0.3044
482,1.472781804,0.30155
481,1.472353488,0.29871
480,1.471934916,0.29587
479,1.47162274,0.29304
478,1.471414575,0.29022
477,1.471303041,0.2874
476,1.47118158,0.28459
475,1.471070023,0.28181
474,1.47097829,0.27903
473,1.470916304,0.27627
472,1.471077461,0.27352
471,1.471122085,0.27079
470,1.471280733,0.2681
469,1.471397226,0.26545
468,1.471597961,0.26285
467,1.471905188,0.2603
466,1.472194994,0.25779
465,1.472531767,0.25533
464,1.472880813,0.25292
463,1.473348511,0.25058
462,1.473744293,0.24828
461,1.474159711,0.24603
460,1.474639229,0.24385
459,1.475081488,0.24172
458,1.475661842,0.23963
457,1.476269041,0.23761
456,1.476942501,0.23564
455,1.477482458,0.23372
454,1.478105924,0.23186
453,1.478692114,0.23006
452,1.479364136,0.22829
451,1.479959517,0.22657
450,1.480446417,0.22488
449,1.481124781,0.22322
448,1.481827301,0.22159
447,1.482428771,0.21999
446,1.482939161,0.21843
445,1.483596448,0.2169
444,1.48435383,0.2154
443,1.485122963,0.21391
442,1.485955214,0.21245
441,1.486850449,0.21102
440,1.487757221,0.20962
439,1.488670623,0.20826
438,1.489580885,0.20694
437,1.490566016,0.20565
436,1.491611224,0.20439
435,1.492609293,0.20318
434,1.493591952,0.202
433,1.494724429,0.20086
432,1.495710239,0.19977
431,1.496581267,0.19873
430,1.49749773,0.19775
429,1.498532177,0.19681
428,1.499481074,0.19591
427,1.500472772,0.19506
426,1.501354965,0.19424
425,1.502255855,0.19345
424,1.503023398,0.19271
423,1.503877287,0.192
422,1.504720963,0.19132
421,1.50555445,0.19066
420,1.506332042,0.19002
419,1.507058653,0.18941
418,1.507840146,0.18882
417,1.508457792,0.18827
416,1.509012701,0.18776
415,1.509564973,0.18729
414,1.51012901,0.18686
413,1.510673614,0.18648
412,1.511227583,0.18615
411,1.511723797,0.18588
410,1.512186283,0.18568
409,1.512739616,0.18555
408,1.513134711,0.18547
407,1.513577557,0.18546
406,1.51409203,0.18552
405,1.514570431,0.18562
404,1.515031925,0.18578
403,1.515631868,0.18599
402,1.516298422,0.18624
401,1.516819012,0.18653
400,1.517379973,0.18684
399,1.518162541,0.1872
398,1.518889828,0.18758
397,1.519833529,0.18801
396,1.52074801,0.18847
395,1.521704703,0.189
394,1.522865169,0.1896
393,1.523965285,0.19028
392,1.525107247,0.19108
391,1.526388173,0.19199
390,1.527710569,0.19304
389,1.529071959,0.19424
388,1.530375303,0.19561
387,1.531932553,0.19715
386,1.533282852,0.19885
385,1.534648394,0.20074
384,1.535878407,0.20283
383,1.537373296,0.20513
382,1.538692717,0.20762
381,1.539942848,0.21029
380,1.540912622,0.21313
379,1.542038931,0.21612
378,1.542955781,0.21929
377,1.543628409,0.22261
376,1.54430308,0.22608
375,1.5446965,0.22965
374,1.545052364,0.23332
373,1.545178769,0.23702
372,1.545080455,0.24073
371,1.544731622,0.24436
370,1.543883788,0.24787
369,1.542969846,0.25121
368,1.542081151,0.2543
367,1.541189585,0.25707
366,1.54014249,0.25944
365,1.538934836,0.26139
364,1.53792849,0.26291
363,1.536806124,0.26404
362,1.535661698,0.26481
361,1.534693183,0.26527
360,1.533771199,0.26548
359,1.533049237,0.26549
358,1.532555925,0.26536
357,1.531771944,0.26514
356,1.530890635,0.26488
355,1.530056082,0.26463
354,1.52913822,0.2644
353,1.528456536,0.26421
352,1.527840846,0.26404
351,1.526895475,0.26392
350,1.525989788,0.26381
349,1.524974343,0.26369
348,1.524105409,0.26358
347,1.523338112,0.26346
346,1.522472908,0.26329
345,1.521842679,0.26309
344,1.521252618,0.26282
343,1.520964633,0.26246
342,1.52040277,0.26203
341,1.519955019,0.26152
340,1.519738235,0.26095
339,1.519333163,0.26033
338,1.519009018,0.25962
337,1.518913667,0.25889
336,1.51838196,0.25811
335,1.517976483,0.25728
334,1.517697349,0.25643
333,1.517685419,0.25556
332,1.517859588,0.25468
331,1.518334263,0.25381
330,1.518312799,0.25298
329,1.518434425,0.2522
328,1.518739634,0.25146
327,1.518920819,0.25078
326,1.518632342,0.25017
325,1.518846917,0.24958
324,1.519082911,0.24901
323,1.519004251,0.24854
322,1.519302182,0.24816
321,1.519516652,0.24785
320,1.519673909,0.24756
319,1.520097934,0.24728
318,1.520555162,0.24698
317,1.521193122,0.2466
316,1.521787966,0.24612
315,1.522432486,0.24552
314,1.522793857,0.24478
313,1.523257319,0.24384
312,1.523863151,0.24269
311,1.524290638,0.24132
310,1.524715619,0.2397
309,1.525546215,0.23786
308,1.526504347,0.23587
307,1.527759128,0.23384
306,1.529177067,0.23205
305,1.530757683,0.23025
304,1.532500446,0.22841
303,1.534404782,0.22656
302,1.536470071,0.22468
301,1.538695655,0.22278
300,1.54108084,0.22085
